* 7:36pm August 4, 2019
* a0 vs Yanyu
* 1 2 2 2 2 2 5 1 2 2 2 2 2 5
* X X X X
* X X X X
* X X X X
* X X X X
* X X X X
* X X X X
* X X X X
* X X X X
* first 0
* time 900000
* 1. c6(C) c5(P)
* 2. d5(R) b6(m)
* 3. d6(M) b6-c6
* 4. d6-c6 a1(M)
* 5. d4(P) c1(c)
* 6. b1(P) c1-a1
* 7. a2(g) d1(r)
* 8. d3(r) d1-c1
* 9. c4(m) c1-b1
* 10. c2(k) d3-d4
* 11. d5-d4 c4-d4
* 12. a4(G) c2-c1
* 13. c7(n) c1-c2
* 14. c6-c7 c2-c1
* 15. b7(g) b7-c7
* 16. b4(N) c7-c6
* 17. b3(P) c6-c5
* 18. a5(n) d4-c4
* 19. a7(c) a7-b7
* 20. d7(P) c4-b4
* 21. b8(p) b4-b3
* 22. a3(C) b3-a3
* 23. a6(p) a3-b3
* 24. b2(N) c5-c6
* 25. b5(p) a1-a4
* 26. d7-d6 b1-b2
* 27. d6-d5 c1-d1
* 28. a8(R) b7-c7
* 29. a8-b8 c6-b6
* 30. c8(G) c7-c6
* 31. c8-c7 c6-c5
* 32. d8(p) a4-b4
* 33. c3(p) b4-c4
* 34. c7-d7 c4-d4
* 35. d7-c7 c5-c4
* 36. d5-d6 d8-d7
* 37. d6-d7 b5-c5
* 38. c7-c8 c4-c8
* 39. b8-c8 d1-c1
* 40. c8-b8 d4-d5
* 41. b8-a8 d5-d6
* 42. a8-a7 b6-b7
* 43. a7-a6 b3-b4
* 44. a6-b6 b7-b6
* 45. d7-d8 c1-d1
* 46. d8-c8 b2-b1
* 47. c8-d8 b6-b5
* 48. d8-c8 a5-a6
* 49. c8-b8 b5-a5
* 50. b8-c8 a6-b6
* 51. c8-d8 a2-b2
* 52. d8-c8 b2-a2
* 53. c8-d8 a2-b2
* 54. d8-c8 d2(K)
* 55. d2-d1 c3-c2
* 56. c8-d8 b2-b3
* 57. d1-c1 c2-c1
* 58. d8-d7 b6-c6
* 59. d7-c7 c6-c7
* Comment 0 0
0. 33248
1. 33249
2. 33250
3. 33250
4. 33251
5. 33252
6. 33253
7. 33254
8. 33254
9. 33255
10. 33256
11. 33257
12. 33257
13. 33258
14. 33259
15. 33260
16. 33260
17. 33263
18. 33265
19. 33267
20. 33269
21. 33271
22. 33273
23. 33275
24. 33277
25. 33279
26. 33281
27. 33283
28. 33285
29. 33287
30. 33288
31. 33290
32. 33292
33. 33294
34. 33296
35. 33298
36. 33300
37. 33302
38. 33304
39. 33306
40. 33309
41. 33311
42. 33313
43. 33315
44. 33316
45. 33318
46. 33320
47. 33322
48. 33323
49. 33325
50. 33327
51. 33329
52. 33331
53. 33334
54. 33335
55. 33337
56. 33339
57. 33342
58. 33343
59. 33346
60. 33348
61. 33350
62. 33351
63. 33353
64. 33355
65. 33357
66. 33359
67. 33361
68. 33363
69. 33365
70. 33367
71. 33369
72. 33372
73. 33374
74. 33376
75. 33378
76. 33380
77. 33383
78. 33384
79. 33386
80. 33388
81. 33390
82. 33392
83. 33394
84. 33397
85. 33399
86. 33401
87. 33403
88. 33406
89. 33408
90. 33410
91. 33412
92. 33414
93. 33416
94. 33418
95. 33419
96. 33421
97. 33423
98. 33425
99. 33427
100. 33429
101. 33431
102. 33434
103. 33435
104. 33437
105. 33440
106. 33442
107. 33444
108. 33446
109. 33448
110. 33450
111. 33452
112. 33454
113. 33455
114. 33457
115. 33460
116. 33462
117. 33464
