* 7:38pm August 4, 2019
* Dark_Cheese vs Yahari
* 1 2 2 2 2 2 5 1 2 2 2 2 2 5
* X X X X
* X X X X
* X X X X
* X X X X
* X X X X
* X X X X
* X X X X
* X X X X
* first 0
* time 900000
* 1. c6(R) c4(m)
* 2. c7(p) d4(P)
* 3. a4(p) c4-d4
* 4. b6(P) c3(R)
* 5. c2(r) c2-c3
* 6. b5(M) b3(p)
* 7. a6(G) d5(P)
* 8. a2(n) a8(n)
* 9. d2(r) d4-d5
* 10. c6-c7 d1(K)
* 11. d7(k) d2-c2
* 12. c1(N) c5(P)
* 13. c7-c6 c3-c4
* 14. b4(g) b4-b5
* 15. d6(C) d5-c5
* 16. b7(g) d7-d6
* 17. d1-d2 c2-c1
* 18. d2-c2 c5-c6
* 19. b2(P) b3-b2
* 20. c2-c3 d6-d5
* 21. d3(p) d3-c3
* 22. a7(c) b5-b6
* 23. a6-b6 b7-b6
* 24. c8(N) c6-c7
* 25. a3(c) d5-d6
* 26. b8(C) b6-c6
* 27. b1(M) c7-c8
* 28. b8-b7 d6-d7
* 29. b1-b2 c6-b6
* 30. b2-a2 b6-b7
* 31. a2-a3 d8(p)
* 32. a3-b3 b7-b6
* 33. b3-c3 d7-d6
* 34. c3-d3 b6-a6
* 35. d3-c3 d6-d5
* 36. c3-c4 d5-d4
* 37. c4-c3 d4-d3
* 38. c3-c4 c8-c7
* 39. a1(G) a5(m)
* 40. a1-b1 c7-c6
* 41. c4-b4 d3-c3
* 42. b1-c1 c6-c5
* 43. b4-c4 c5-c4
* 44. c1-c2 c3-c2
* Comment 0 0
0. 7132
1. 7133
2. 7134
3. 7135
4. 7136
5. 7137
6. 7138
7. 7139
8. 7139
9. 7140
10. 7141
11. 7142
12. 7143
13. 7144
14. 7144
15. 7145
16. 7146
17. 7149
18. 7151
19. 7154
20. 7155
21. 7157
22. 7159
23. 7161
24. 7163
25. 7165
26. 7166
27. 7169
28. 7170
29. 7172
30. 7174
31. 7176
32. 7178
33. 7179
34. 7181
35. 7183
36. 7186
37. 7188
38. 7190
39. 7192
40. 7193
41. 7195
42. 7197
43. 7199
44. 7201
45. 7203
46. 7205
47. 7207
48. 7208
49. 7211
50. 7212
51. 7214
52. 7216
53. 7218
54. 7220
55. 7222
56. 7224
57. 7226
58. 7228
59. 7230
60. 7232
61. 7234
62. 7236
63. 7238
64. 7240
65. 7242
66. 7244
67. 7246
68. 7248
69. 7251
70. 7253
71. 7255
72. 7257
73. 7259
74. 7261
75. 7263
76. 7265
77. 7266
78. 7269
79. 7271
80. 7273
81. 7275
82. 7277
83. 7279
84. 7280
85. 7282
86. 7285
87. 7287
